  time (s)              T(t) (K)              P(t) (Pa)           Kinetic En. (n.u.)     Potential En. (n.u.) Total En. (n.u.)
  0.0000e+00           99.95839539            0.00000000        5275.96302068       -45644.01862972       -40368.05560903 
  5.0000e-15           99.88871634            0.00000000        5272.28524986       -45551.39840271       -40279.11315285 
  1.0000e-14           99.77921286            0.00000000        5266.50548167       -45398.57908717       -40132.07360550 
  1.5000e-14           99.64313034            0.00000000        5259.32283022       -45186.55165131       -39927.22882109 
  2.0000e-14           99.49898185            0.00000000        5251.71444355       -44916.69514128       -39664.98069773 
  2.5000e-14           99.37092206            0.00000000        5244.95524455       -44590.83158875       -39345.87634420 
  3.0000e-14           99.28920342            0.00000000        5240.64200481       -44211.29457895       -38970.65257414 
  3.5000e-14           99.29068534            0.00000000        5240.72022261       -43781.00896441       -38540.28874180 
  4.0000e-14           99.41935524            0.00000000        5247.51162454       -43303.57790024       -38056.06627570 
  4.5000e-14           99.72680459            0.00000000        5263.73928987       -42783.37161461       -37519.63232474 
  5.0000e-14          100.27258478            0.00000000        5292.54643645       -42225.61013347       -36933.06369702 
  5.5000e-14          101.12434882            0.00000000        5337.50389657       -41636.42968657       -36298.92579001 
  6.0000e-14          102.35766754            0.00000000        5402.60041912       -41022.92004067       -35620.31962154 
  6.5000e-14          104.05539983            0.00000000        5492.20942843       -40393.11806188       -34900.90863345 
  7.0000e-14          106.30650057            0.00000000        5611.02610432       -39755.94215871       -34144.91605439 
  7.5000e-14          109.20417587            0.00000000        5763.97001293       -39121.05379170       -33357.08377877 
  8.0000e-14          112.84334833            0.00000000        5956.05132128       -38498.63677647       -32542.58545519 
  8.5000e-14          117.31747676            0.00000000        6192.20293256       -37899.09304129       -31706.89010872 
  9.0000e-14          122.71487738            0.00000000        6477.08631771       -37332.66438747       -30855.57806976 
  9.5000e-14          129.11480206            0.00000000        6814.88451720       -36809.00209939       -29994.11758219 
  1.0000e-13          136.58361741            0.00000000        7209.10046505       -36336.71743925       -29127.61697420 
  1.0500e-13          145.17147235            0.00000000        7662.38110180       -35922.95326216       -28260.57216035 
  1.1000e-13          154.90982397            0.00000000        8176.38678203       -35573.01797468       -27396.63119266 
  1.1500e-13          165.81010917            0.00000000        8751.72116360       -35290.11719433       -26538.39603073 
  1.2000e-13          177.86372077            0.00000000        9387.92994688       -35075.20704810       -25687.27710122 
  1.2500e-13          191.04329826            0.00000000       10083.56899939       -34926.97883219       -24843.40983280 
  1.3000e-13          205.30520557            0.00000000       10836.33514052       -34841.97090734       -24005.63576681 
  1.3500e-13          220.59296403            0.00000000       11643.24733633       -34814.79270752       -23171.54537119 
  1.4000e-13          236.84134573            0.00000000       12500.86275386       -34838.43876675       -22337.57601289 
  1.4500e-13          253.98080948            0.00000000       13405.51089818       -34904.66754996       -21499.15665177 
  1.5000e-13          271.94196713            0.00000000       14353.52935349       -35004.41950196       -20650.89014847 
  1.5500e-13          290.65979054            0.00000000       15341.48583021       -35128.24963080       -19786.76380059 
  1.6000e-13          310.07729940            0.00000000       16366.37281738       -35266.75085983       -18900.37804245 
  1.6500e-13          330.14850715            0.00000000       17425.76307119       -35410.94480064       -17985.18172945 
  1.7000e-13          350.84045235            0.00000000       18517.91683481       -35552.61719729       -17034.70036248 
  1.7500e-13          372.13422154            0.00000000       19641.83582507       -35684.57805830       -16042.74223323 
  1.8000e-13          394.02498526            0.00000000       20797.26513564       -35800.83383888       -15003.56870325 
  1.8500e-13          416.52120741            0.00000000       21984.65150499       -35896.67142771       -13912.01992272 
  1.9000e-13          439.64329558            0.00000000       23205.07207745       -35968.66690616       -12763.59482871 
  1.9500e-13          463.42196546            0.00000000       24460.14807680       -36014.63752234       -11554.48944554 
  2.0000e-13          487.89646796            0.00000000       25751.95122785       -36033.54628033       -10281.59505249 
  2.0500e-13          513.11264382            0.00000000       27082.90107762       -36025.34825857        -8942.44718095 
  2.1000e-13          539.12067956            0.00000000       28455.64655147       -35990.75107965        -7535.10452818 
  2.1500e-13          565.97256298            0.00000000       29872.93164674       -35930.86579455        -6057.93414781 
  2.2000e-13          593.71956286            0.00000000       31337.46241227       -35846.75441466        -4509.29200239 
  2.2500e-13          622.41042448            0.00000000       32851.81170050       -35738.92505725        -2887.11335674 
  2.3000e-13          652.09117087            0.00000000       34418.40868123       -35606.86460668        -1188.45592545 
  2.3500e-13          682.80732531            0.00000000       36039.65614423       -35448.71819772          590.93794651 
  2.4000e-13          714.60907542            0.00000000       37718.20307275       -35261.22896673         2456.97410602 
  2.4500e-13          747.55949214            0.00000000       39457.37845164       -35040.05599079         4417.32246085 
  2.5000e-13          781.74528663            0.00000000       41261.75903255       -34780.58902724         6481.17000530 
  2.5500e-13          817.28817180            0.00000000       43137.76901729       -34479.30282819         8658.46618909 
  2.6000e-13          854.35210708    169223124.19908845       45094.06244479       -34135.39780382        10958.66464098 
  2.6500e-13          893.14056318            0.00000000       47141.37882305       -33752.30414138        13389.07468167 
  2.7000e-13          933.87097629            0.00000000       49291.19477936       -33336.33450373        15954.86027563 
  2.7500e-13          976.74818798            0.00000000       51554.32217800       -32896.06765641        18658.25452159 
  2.8000e-13         1021.93606568            0.00000000       53939.41020177       -32439.80931412        21499.60088765 
  2.8500e-13         1069.54313922    142529849.87352350       56452.18722775       -31973.46464973        24478.72257801 
  2.9000e-13         1119.60294816            0.00000000       59094.42352794       -31495.43956925        27598.98395869 
  2.9500e-13         1172.13251008    137837936.21773574       61867.01731662       -30996.10843219        30870.90888443 
  3.0000e-13         1227.13677156            0.00000000       64770.22968241       -30447.47260995        34322.75707246 
  3.0500e-13         1284.73623746            0.00000000       67810.42106319       -29799.94315664        38010.47790655 
  3.1000e-13         1345.41205187            0.00000000       71012.98700894       -28992.62396735        42020.36304159 
  3.1500e-13         1410.39844748    118094468.40751821       74443.07228351       -28006.76369082        46436.30859268 
  3.2000e-13         1481.68721236            0.00000000       78205.80662720       -26948.95180092        51256.85482628 
  3.2500e-13         1560.60775994    851889265.47271538       82371.35859486       -25987.93577160        56383.42282326 
  3.3000e-13         1645.67796093    575475120.47744274       86861.49904626       -24993.59031743        61867.90872884 
  3.3500e-13         1736.03542154    377526672.06625193       91630.70946594       -23654.30526155        67976.40420439 
  3.4000e-13         1834.62504604    261292043.81399199       96834.42658316       -21797.36034481        75037.06623835 
  3.4500e-13         1948.28205957    221503495.79839122      102833.42444705       -20397.82800939        82435.59643765 
  3.5000e-13         2073.42908631    518080777.09371179      109438.88347473       -19296.03583058        90142.84764415 
  3.5500e-13         2207.98389847   1247450474.84924674      116540.90037315       -17373.18006191        99167.72031124 
  3.6000e-13         2358.90575925    749997836.68182027      124506.79611775       -14922.76686162       109584.02925613 
  3.6500e-13         2527.08898554    904802026.08562279      133383.77417631       -13772.23649207       119611.53768424 
  3.7000e-13         2698.65670136            0.00000000      142439.39097239       -11912.08868978       130527.30228261 
  3.7500e-13         2890.65231960   1370299314.99659777      152573.22493404        -8137.71965720       144435.50527684 
  3.8000e-13         3129.13230393   2237541875.42602921      165160.57763807        -6087.40667833       159073.17095974 
  3.8500e-13         3375.04851705   1146700364.86157608      178140.42631940        -3706.96434544       174433.46197396 
  3.9000e-13         3654.03208598   2011326830.01994944      192865.62261073         3544.43701299       196410.05962372 
  3.9500e-13         3990.68002774    685159715.79705143      210634.43617336         4864.62403191       215499.06020527 
  4.0000e-13         4307.13607768   1818157138.21767378      227337.48958491        12293.46356876       239630.95315366 
  4.0500e-13         4725.80214363   5244520425.21652222      249435.35013368        17213.84835141       266649.19848509 
  4.1000e-13         5235.93390563   2477793278.01705837      276360.91552990        31312.97012078       307673.88565068 
  4.1500e-13         5995.74964011   3077291240.80682993      316465.19793687        39503.35689203       355968.55482889 
  4.2000e-13         7403.94160338   7805654972.06670380      390791.80847582        68367.68145568       459159.48993150 
  4.2500e-13    839556867.31087565   1182380504.72935295 44313146168.63030243     13612509.15061740  44326758677.78092194 
  4.3000e-13   3358856176.54098129  22596246331704.80468750 177285768845.18963623       195827.04166260  177285964672.23129272 
  4.3500e-13   3305394881.04384565  95169583855.11294556 174463996677.07369995      5276526.09491051  174469273203.16860962 
  4.4000e-13   6217542543.99110889  25932939992996.49609375 328171780005.86334229     22593146.21092959  328194373152.07427979 
  4.4500e-13  15814304250.64731598  33374819334563.49218750 834704119637.24890137     25637050.59007178  834729756687.83898926 
  4.5000e-13  64364721850202680.00000000  58050883953758.58593750 3397272345096727040.00000000  55151662642.91424561  3397272400248389632.00000000 
  4.5500e-13  257459155251792928.00000000  182350186312105120.00000000 13589103517987592192.00000000    201444806.90363371  13589103518189037568.00000000 
  4.6000e-13  257460461025046336.00000000  488975615147823.50000000 13589172438775799808.00000000    201239109.78700584  13589172438977038336.00000000 
  4.6500e-13  257461466697050144.00000000  182775714554878368.00000000 13589225519742957568.00000000     31294318.87946488  13589225519774251008.00000000 
  4.7000e-13  397186963679814656.00000000  525840683026478.25000000 20964159383501250560.00000000  79162531491.60894775  20964159462663782400.00000000 
  4.7500e-13  62473119167141800287503638331392.00000000  415665646114749632.00000000 3297430548249857198213644878348288.00000000  455663232219142976.00000000  3297430548249857774674397181771776.00000000 
  4.8000e-13  249892476671174172844712748122112.00000000  4123204299778197299396608.00000000 13189722193137032280272415913672704.00000000    345673355.47100872  13189722193137032280272415913672704.00000000 
  4.8500e-13  249877913209500714020205764804608.00000000  3384194731176203992956928.00000000 13188953510477185790719082048258048.00000000  60778742649382.01562500  13188953510477185790719082048258048.00000000 
  4.9000e-13  249892215367021759010427071627264.00000000  4123271288842276153851904.00000000 13189708401088450861364079992242176.00000000  40763501586391.55468750  13189708401088450861364079992242176.00000000 
  4.9500e-13  249892215555185646235277234012160.00000000  3384514902148782009352192.00000000 13189708411020039520068749760659456.00000000   2969918178.03537655  13189708411020039520068749760659456.00000000 
  5.0000e-13  249892215555738255923954103353344.00000000  4123271294658796817743872.00000000 13189708411049203822449284561764352.00000000   7638652537.71980572  13189708411049203822449284561764352.00000000 
  5.0500e-13  249892429518232647717388235571200.00000000  3384514920526335572967424.00000000 13189719704329812115735557542248448.00000000  1368420032142650.25000000  13189719704329812115735557542248448.00000000 
  5.1000e-13  83637854838620884431301314425240158208.00000000  4133719536899348727070720.00000000 4414538944295413190858279529707288395776.00000000  306447124113272995840.00000000  4414538944295413190858279529707288395776.00000000 
  5.1500e-13  334550669675266649652584685966991556608.00000000  6195071753811232051993509888.00000000 17658116207920752198341479123373348880384.00000000  14279080651800.69921875  17658116207920752198341479123373348880384.00000000 
  5.2000e-13  334550669675263816232694964179863339008.00000000  4133692710735950062288896.00000000 17658116207920607127243125367872384139264.00000000  6557964602164.11230469  17658116207920607127243125367872384139264.00000000 
  5.2500e-13  334550669675263816232694964179863339008.00000000  6195071780400118114616868864.00000000 17658116207920607127243125367872384139264.00000000  7599937857702.66113281  17658116207920607127243125367872384139264.00000000 
  5.3000e-13  334550669675271334240135692655043543040.00000000  4133738937917258080452608.00000000 17658116207921003654911958966241687764992.00000000  321817629579358.12500000  17658116207921003654911958966241687764992.00000000 
  5.3500e-13  334550669675294039378185329909230993408.00000000  6195073748976671127905501184.00000000 17658116207922202909325016678382996291584.00000000  72522444806865.71875000  17658116207922202909325016678382996291584.00000000 
  5.4000e-13  334550669675381044258265720252648128512.00000000  4134095140701395432243200.00000000 17658116207926791991736273810730180935680.00000000  1071609156656082.00000000  17658116207926791991736273810730180935680.00000000 
  5.4500e-13  334552282825547895767249114661566545920.00000000  6195080022228711934712086528.00000000 17658201352557153459472226272763684323328.00000000  2043438472878278656.00000000  17658201352557153459472226272763684323328.00000000 
  5.5000e-13  334557122408586954686396704813339377664.00000000  33162599061919928030330880.00000000 17658456793443832188978489133802446651392.00000000  4285538132836.23974609  17658456793443832188978489133802446651392.00000000 
  5.5500e-13  334557122408586954686396704813339377664.00000000  6195080036945946651865907200.00000000 17658456793443834606830128363060796063744.00000000  40000409727067.80468750  17658456793443834606830128363060796063744.00000000 
  5.6000e-13  334557122409292438460005566851103850496.00000000  33162791838665469849501696.00000000 17658456793481069522074258941641746284544.00000000  2424864213689602.50000000  17658456793481069522074258941641746284544.00000000 
  5.6500e-13  334557122411533333582388733855068585984.00000000  6195099627563176490853990400.00000000 17658456793599350824265354260094998544384.00000000  1071734558378945.00000000  17658456793599350824265354260094998544384.00000000 
  5.7000e-13  334557122650153303035972291873952759808.00000000  33171025447451824029171712.00000000 17658456806194087501960553986943254265856.00000000  38071724118692872.00000000  17658456806194087501960553986943254265856.00000000 
  5.7500e-13  334557123448793651316197439525376491520.00000000  6195412116675857388530565120.00000000 17658456848347597232297345930711082729472.00000000  25979632270771.13281250  17658456848347597232297345930711082729472.00000000 
  5.8000e-13  334557123437579126508406057900538068992.00000000  33171146662835246480752640.00000000 17658456847755673301091074277158047186944.00000000  690804112957700.37500000  17658456847755673301091074277158047186944.00000000 
  5.8500e-13  362911312183654790301759948180588331008.00000000  6195410127225482941216849920.00000000 19155036006737818674980828657474800189440.00000000  186008237281595064320.00000000  19155036006737818674980828657474800189440.00000000 
  5.9000e-13  447973880374402723589732153266838437888.00000000  2816350354471580129818574848.00000000 23644773586741404234536752840584781103104.00000000  219755261801739.40625000  23644773586741404234536752840584781103104.00000000 
  5.9500e-13  447976112156196864894997134130615943168.00000000  6195411417772376410692780032.00000000 23644891383732548962919095997998349418496.00000000  2373540812981379072.00000000  23644891383732548962919095997998349418496.00000000 
  6.0000e-13  448007341604778484637631274377650634752.00000000  2850487087579923171204136960.00000000 23646539723676682496833812756421284986880.00000000  7179511076065476608.00000000  23646539723676682496833812756421284986880.00000000 
  6.0500e-13  448080943816589009326206824061387931648.00000000  6297862845859957317023301632.00000000 23650424565427479691533189069778007883776.00000000  20563693108074.63281250  23650424565427479691533189069778007883776.00000000 
  6.1000e-13  448080951014683623902659773851240497152.00000000  2850487140502272698004537344.00000000 23650424945354358091204773511456383565824.00000000  168195287609203616.00000000  23650424945354358091204773511456383565824.00000000 
  6.1500e-13  448080972615392303900360569969774166016.00000000  6299636119205373308575940608.00000000 23650426085474096982621430319996592979968.00000000  274992171346659.50000000  23650426085474096982621430319996592979968.00000000 
  6.2000e-13  448080972615410513345518515321718177792.00000000  2850488494218336244013727744.00000000 23650426085475059287573843564819659096064.00000000  726676739394043.75000000  23650426085475059287573843564819659096064.00000000 
  6.2500e-13  451652751340610065068628446841046827008.00000000  6299640542606938108927672320.00000000 23838950244938773751948517896699252834304.00000000  71494302453154783232.00000000  23838950244938773751948517896699252834304.00000000 
  6.3000e-13  462368090709542146957585272420519903232.00000000  4182277974283136867739107328.00000000 24404522891879143135378529168095000395776.00000000  87864952584167984.00000000  24404522891879143135378529168095000395776.00000000 
  6.3500e-13  465283139387911780828143481916120629248.00000000  6300483327837151987322847232.00000000 24558383795413901832387929445155282616320.00000000  68390833071762522112.00000000  24558383795413901832387929445155282616320.00000000 
  6.4000e-13  474028269697771652662628298453552201728.00000000  5303449751645664539819638784.00000000 25019965676014551652512884748423889158144.00000000  18588237454265268.00000000  25019965676014551652512884748423889158144.00000000 
  6.4500e-13  474028269876885648749549401492078723072.00000000  6300661490967817981918183424.00000000 25019965685468472454481246357543656095744.00000000  112945225031324.31250000  25019965685468472454481246357543656095744.00000000 
