  time (s)              T(t) (K)              P(t) (Pa)           Kinetic En. (n.u.)     Potential En. (n.u.) Total En. (n.u.)
  0.0000e+00           99.68393520            0.00000000        5261.47657561         -123.03312745         5138.44344816 
  5.0000e-15           98.82433408            0.00000000        5216.10546169         -123.78141477         5092.32404692 
  1.0000e-14           97.41657222            0.00000000        5141.80155304         -128.11612356         5013.68542949 
  1.5000e-14           95.48544903            0.00000000        5039.87380105         -128.27990928         4911.59389177 
  2.0000e-14           93.06556263            0.00000000        4912.14834939         -130.20292508         4781.94542431 
  2.5000e-14           90.20176024            0.00000000        4760.99230663         -122.59662695         4638.39567968 
  3.0000e-14           86.94955760            0.00000000        4589.33588076         -123.44926819         4465.88661257 
  3.5000e-14           83.37538796            0.00000000        4400.68552521         -128.70174928         4271.98377593 
  4.0000e-14           79.55651151            0.00000000        4199.11915474         -129.45607373         4069.66308101 
  4.5000e-14           75.58039535            0.00000000        3989.25342296         -114.24463247         3875.00879049 
  5.0000e-14           71.54337500            0.00000000        3776.17307082         -130.38341924         3645.78965158 
  5.5000e-14           67.54844123            0.00000000        3565.31411563         -118.33229386         3446.98182177 
  6.0000e-14           63.70207351            0.00000000        3362.29671232         -110.49082300         3251.80588932 
  6.5000e-14           60.11016458            0.00000000        3172.71004875         -103.61155469         3069.09849406 
  7.0000e-14           56.87324088            0.00000000        3001.86006951          -97.13897399         2904.72109552 
  7.5000e-14           54.08135103            0.00000000        2854.49968465         -112.54983792         2741.94984672 
  8.0000e-14           51.80912907            0.00000000        2734.56819753         -117.01661026         2617.55158727 
  8.5000e-14           50.11159520            0.00000000        2644.96966097         -105.20800989         2539.76165108 
  9.0000e-14           49.02120678            0.00000000        2587.41722678         -112.49045301         2474.92677377 
  9.5000e-14           48.54651723            0.00000000        2562.36235763         -121.52637528         2440.83598236 
  1.0000e-13           48.67257374            0.00000000        2569.01582082          -98.07656251         2470.93925831 
  1.0500e-13           49.36294299            0.00000000        2605.45460705         -113.36241878         2492.09218827 
  1.1000e-13           50.56305203            0.00000000        2668.79827019          -97.13427511         2571.66399508 
  1.1500e-13           52.20440815            0.00000000        2755.43165575         -106.34255408         2649.08910167 
  1.2000e-13           54.20922624            0.00000000        2861.24914201         -108.47185776         2752.77728425 
  1.2500e-13           56.49503309            0.00000000        2981.89766107         -123.03370233         2858.86395873 
  1.3000e-13           58.97890733            0.00000000        3113.00049223         -114.92659233         2998.07389990 
  1.3500e-13           61.58112366            0.00000000        3250.34960727         -117.75417518         3132.59543209 
  1.4000e-13           64.22807627            0.00000000        3390.05997390         -121.68531113         3268.37466277 
  1.4500e-13           66.85444584            0.00000000        3528.68393562         -124.48242778         3404.20150784 
  1.5000e-13           69.40464059            0.00000000        3663.28726836         -125.84413974         3537.44312863 
  1.5500e-13           71.83358412            0.00000000        3791.49076962         -119.55809252         3671.93267710 
  1.6000e-13           74.10694637            0.00000000        3911.48244332         -127.48842371         3783.99401961 
  1.6500e-13           76.20092083            0.00000000        4022.00574418         -119.96309912         3902.04264506 
  1.7000e-13           78.10164854            0.00000000        4122.32917459         -134.85668752         3987.47248707 
  1.7500e-13           79.80437895            0.00000000        4212.20199246         -119.41749525         4092.78449722 
  1.8000e-13           81.31244413            0.00000000        4291.80007008         -132.01023020         4159.78983989 
  1.8500e-13           82.63610884            0.00000000        4361.66519791         -126.51825624         4235.14694167 
  1.9000e-13           83.79134657            0.00000000        4422.64048185         -124.07935225         4298.56112961 
  1.9500e-13           84.79858291            0.00000000        4475.80401746         -124.71372966         4351.09028780 
  2.0000e-13           85.68144269            0.00000000        4522.40275984         -130.11151709         4392.29124275 
  2.0500e-13           86.46553509            0.00000000        4563.78840335         -122.73037669         4441.05802666 
  2.1000e-13           87.17731089            0.00000000        4601.35706140         -123.69188086         4477.66518054 
  2.1500e-13           87.84302482            0.00000000        4636.49450105         -131.21341248         4505.28108858 
  2.2000e-13           88.48783405            0.00000000        4670.52855763         -128.66135027         4541.86720736 
  2.2500e-13           89.13505817            0.00000000        4704.69007530         -127.31505978         4577.37501552 
  2.3000e-13           89.80561771            0.00000000        4740.08327404         -131.34739236         4608.73588168 
  2.3500e-13           90.51765739            0.00000000        4777.66586027         -120.07489465         4657.59096562 
  2.4000e-13           91.28634754            0.00000000        4818.23854870         -130.26366063         4687.97488807 
  2.4500e-13           92.12384590            0.00000000        4862.44304339         -116.48867384         4745.95436954 
  2.5000e-13           93.03939217            0.00000000        4910.76703115         -117.83081737         4792.93621377 
  2.5500e-13           94.03950248            0.00000000        4963.55444312         -127.28191091         4836.27253221 
  2.6000e-13           95.12822919            0.00000000        5021.01916951         -130.79663876         4890.22253075 
  2.6500e-13           96.30745451            0.00000000        5083.26055698         -138.15015257         4945.11040441 
  2.7000e-13           97.57719210            0.00000000        5150.27932555         -136.70788186         5013.57144369 
  2.7500e-13           98.93587816            0.00000000        5221.99293579         -127.91952241         5094.07341339 
  2.8000e-13          100.38064127            0.00000000        5298.24982956         -128.47872643         5169.77110313 
  2.8500e-13          101.90754587            0.00000000        5378.84228184         -138.75033216         5240.09194969 
  2.9000e-13          103.51180814            0.00000000        5463.51779491         -135.25391768         5328.26387724 
  2.9500e-13          105.18798439            0.00000000        5551.98904184         -128.28316263         5423.70587920 
  3.0000e-13          106.93013218            0.00000000        5643.94237213         -135.57106794         5508.37130420 
  3.0500e-13          108.73194449            0.00000000        5739.04489014         -138.37133163         5600.67355852 
  3.1000e-13          110.58685760            0.00000000        5836.95015309         -133.71286891         5703.23728418 
  3.1500e-13          112.48813542            0.00000000        5937.30261896         -138.48051952         5798.82209944 
  3.2000e-13          114.42893448            0.00000000        6039.74107874         -138.15077414         5901.59030460 
  3.2500e-13          116.40235578            0.00000000        6143.90139247         -146.97011838         5996.93127409 
  3.3000e-13          118.40149016            0.00000000        6249.41888334         -132.54216787         6116.87671547 
  3.3500e-13          120.41946335            0.00000000        6355.93071603         -134.01102219         6221.91969384 
  3.4000e-13          122.44948526            0.00000000        6463.07850015         -142.47520497         6320.60329518 
  3.4500e-13          124.48490585            0.00000000        6570.51123434         -141.08371781         6429.42751653 
  3.5000e-13          126.51927668            0.00000000        6677.88856143         -142.44842163         6535.44013980 
  3.5500e-13          128.54641534     84584954.08596216        6784.88416260         -123.54382106         6661.34034154 
  3.6000e-13          130.55885035            0.00000000        6891.10368135         -144.20596108         6746.89772027 
  3.6500e-13          132.55237397            0.00000000        6996.32502770         -151.40469200         6844.92033569 
  3.7000e-13          134.52187348            0.00000000        7100.27834252         -142.98045397         6957.29788855 
  3.7500e-13          136.46266575            0.00000000        7202.71644384         -143.14627371         7059.57017013 
  3.8000e-13          138.37047762            0.00000000        7303.41378735         -143.89341135         7159.52037600 
  3.8500e-13          140.24138948    162250952.50643948        7402.16349008         -138.55683918         7263.60665090 
  3.9000e-13          142.06668394     90489909.18009104        7498.50543321         -146.98337337         7351.52205984 
  3.9500e-13          143.84867001     67247234.10022984        7592.56149110         -137.36441084         7455.19708026 
  4.0000e-13          145.58376506     70315978.06753927        7684.14256633         -141.10207104         7543.04049529 
  4.0500e-13          147.26584778    167389069.39914611        7772.92556659         -152.12303371         7620.80253288 
  4.1000e-13          148.88970166            0.00000000        7858.63515574         -143.64784550         7714.98731023 
  4.1500e-13          150.45106880            0.00000000        7941.04659541         -133.47723933         7807.56935608 
  4.2000e-13          151.94436037            0.00000000        8019.86489867         -140.06900249         7879.79589619 
  4.2500e-13          153.36359403     68692374.87635957        8094.77430746         -150.77157448         7944.00273298 
  4.3000e-13          154.70236091     72339582.47498570        8165.43655167         -147.91893695         8017.51761472 
  4.3500e-13          155.95633793    123012077.21094005        8231.62345261         -151.31032471         8080.31312790 
  4.4000e-13          157.12109680     60231302.43741061        8293.10127722         -144.87782041         8148.22345681 
  4.4500e-13          158.18837156    214194537.32508332        8349.43373584         -154.98714461         8194.44659124 
  4.5000e-13          159.15504332    243095590.36341333        8400.45620810         -143.20158620         8257.25462190 
  4.5500e-13          160.01988392    234654923.17298466        8446.10386976         -142.61149776         8303.49237199 
  4.6000e-13          160.78248768    130316999.80557504        8486.35530890         -135.08942205         8351.26588685 
  4.6500e-13          161.44128515    416698410.03725135        8521.12768653         -141.56592184         8379.56176470 
  4.7000e-13          162.00104861    189391590.72474238        8550.67289194         -153.68790865         8396.98498329 
  4.7500e-13          162.46989662    223901740.35114643        8575.41943529         -139.76323249         8435.65620280 
  4.8000e-13          162.85240222    131682038.91607782        8595.60868889         -144.02081879         8451.58787010 
  4.8500e-13          163.15702476     92528517.61979567        8611.68715110         -148.74914447         8462.93800663 
  4.9000e-13          163.39915182    110139263.65797678        8624.46700193         -149.27466660         8475.19233533 
  4.9500e-13          163.58967225    162480427.42133510        8634.52297298         -139.32280839         8495.20016459 
  5.0000e-13          163.73757003    196293930.08400592        8642.32925328         -144.49054524         8497.83870804 
  5.0500e-13          163.85341514    396916454.10727590        8648.44374198         -152.02281362         8496.42092836 
  5.1000e-13          163.94561509    350422768.41744101        8653.31020217         -142.90117251         8510.40902966 
  5.1500e-13          164.01723887    342394933.44477218        8657.09061887         -146.41758622         8510.67303265 
  5.2000e-13          164.06313265    153753813.75082773        8659.51296601         -144.50926961         8515.00369640 
  5.2500e-13          164.08586361    452235516.14987129        8660.71274176         -147.34400814         8513.36873362 
  5.3000e-13          164.08153799    209607341.44965205        8660.48442867         -146.18645077         8514.29797790 
  5.3500e-13          164.05016645    171667742.97352535        8658.82858897         -134.07429154         8524.75429743 
  5.4000e-13          163.99215780     53172580.42381781        8655.76680040         -125.70917849         8530.05762191 
  5.4500e-13          163.91043327     55978473.92136570        8651.45324978         -139.77080318         8511.68244660 
  5.5000e-13          163.80804182    140846457.77685955        8646.04886641         -150.48058500         8495.56828141 
  5.5500e-13          163.69001556    322281155.50734144        8639.81925278         -156.89946913         8482.91978365 
  5.6000e-13          163.55938026    134607107.65397391        8632.92411355         -139.45447451         8493.46963904 
  5.6500e-13          163.41435958    168593919.82385683        8625.26969186         -138.63667287         8486.63301899 
  5.7000e-13          163.25323371    212262062.71592626        8616.76521239         -143.20491645         8473.56029594 
  5.7500e-13          163.07009069    222860646.87453777        8607.09863237         -141.88652180         8465.21211057 
  5.8000e-13          162.85942674    274135161.20877200        8595.97945445         -148.16125931         8447.81819513 
  5.8500e-13          162.62389230    111868566.49965088        8583.54757193         -160.78016194         8422.76740999 
  5.9000e-13          162.36530578    330708377.94532752        8569.89896458         -149.27622855         8420.62273604 
  5.9500e-13          162.08282012    220954950.28400904        8554.98892196         -140.89487634         8414.09404562 
  6.0000e-13          161.78442617    294547436.05742854        8539.23921499         -144.70367639         8394.53553860 
  6.0500e-13          161.47423920    352728984.20577228        8522.86705373         -140.13997406         8382.72707967 
  6.1000e-13          161.16285713    334578335.58600968        8506.43181326         -149.78805127         8356.64376199 
  6.1500e-13          160.85851157    216604012.40297785        8490.36797055         -142.46383832         8347.90413223 
  6.2000e-13          160.56229092    477540210.64608419        8474.73297379         -145.17449988         8329.55847390 
  6.2500e-13          160.27781787    377117442.11372054        8459.71803371         -134.47763362         8325.24040009 
  6.3000e-13          160.00513257    494751240.07091784        8445.32527045         -153.68714881         8291.63812164 
  6.3500e-13          159.75483890    336756506.52051997        8432.11437241         -150.06880379         8282.04556862 
  6.4000e-13          159.52061498    274860696.52935350        8419.75166169         -143.39710233         8276.35455936 
  6.4500e-13          159.30138554    224051633.40313417        8408.18038315         -140.66151911         8267.51886404 
  6.5000e-13          159.09363133    288398599.03076810        8397.21478592         -147.34880548         8249.86598044 
  6.5500e-13          158.90157945    350699658.37298459        8387.07798209         -137.63910922         8249.43887287 
  6.6000e-13          158.71935494    398465978.52580506        8377.45988270         -141.30021318         8236.15966952 
  6.6500e-13          158.55067869    388006589.16447413        8368.55688201         -143.52386232         8225.03301968 
  6.7000e-13          158.39654387    181977768.81160140        8360.42140143         -138.52215093         8221.89925050 
  6.7500e-13          158.25418332    191719133.69065431        8352.90738503         -140.54619447         8212.36119055 
  6.8000e-13          158.12568505    330334432.03616691        8346.12504208         -144.49128791         8201.63375417 
  6.8500e-13          158.01030801    256416710.32208371        8340.03525848         -145.37465247         8194.66060601 
  6.9000e-13          157.90420518    418975238.28068650        8334.43498243         -136.66307650         8197.77190593 
  6.9500e-13          157.80565272    335896460.64625567        8329.23322721         -144.60351681         8184.62971040 
  7.0000e-13          157.70407310    170632377.08917099        8323.87169331         -149.06200505         8174.80968826 
  7.0500e-13          157.59269953    115479066.37864821        8317.99321940         -127.86244091         8190.13077849 
  7.1000e-13          157.46318001    404911630.30663568        8311.15697318         -134.85862654         8176.29834665 
  7.1500e-13          157.31318900    298214972.00190318        8303.24020903         -148.52906918         8154.71113986 
  7.2000e-13          157.13432108    114305447.97964759        8293.79927591         -137.35719238         8156.44208354 
  7.2500e-13          156.94189174    192132847.61621916        8283.64254935         -124.42930119         8159.21324816 
  7.3000e-13          156.74385890    157830281.32946092        8273.19006120         -161.26640097         8111.92366022 
  7.3500e-13          156.54206663    150661450.90531173        8262.53914429         -137.09146073         8125.44768356 
  7.4000e-13          156.34541847    219239162.68062693        8252.15974170         -136.19837931         8115.96136240 
  7.4500e-13          156.15630292    210942437.02744448        8242.17792237         -141.47321006         8100.70471231 
  7.5000e-13          155.97929882    119888289.03073464        8232.83536455         -140.26379701         8092.57156754 
  7.5500e-13          155.82225707    108974002.47281893        8224.54645127         -134.12238252         8090.42406875 
  7.6000e-13          155.68381226    421392641.94283956        8217.23911445         -132.40655385         8084.83256060 
  7.6500e-13          155.56875263    198459710.32298350        8211.16608414         -139.12962421         8072.03645994 
  7.7000e-13          155.47958234    369652861.21383667        8206.45953466         -159.84279576         8046.61673890 
  7.7500e-13          155.41450827    111079761.00927161        8203.02482135         -146.91447765         8056.11034371 
  7.8000e-13          155.36847521    150977281.15076640        8200.59512369         -139.97812598         8060.61699771 
  7.8500e-13          155.34751287     60143678.52804833        8199.48869811         -139.71961175         8059.76908636 
  7.9000e-13          155.34645336    301976203.14011294        8199.43277511         -131.68313556         8067.74963955 
  7.9500e-13          155.36120808    155822245.37606150        8200.21155302         -138.88877512         8061.32277790 
  8.0000e-13          155.38887674            0.00000000        8201.67194851         -148.97341566         8052.69853285 
